r0 [AU],vr0 [km/s],vt0 [km/s],r1 [AU],t1 [AU],n1 [AU],vr1 [km/s],vt1 [km/s],vn1 [km/s],tof [days],m0_maximum [kg],m1_maximum [kg]
2.84787337,4.888220741,518.3192178,2.847980181,0.035819729,-1.91E-05,-1.791247638,519.9261729,-0.553634602,3.558372546,3160.778716,3156.076144
2.848368396,4.702367493,520.7040131,2.848463815,0.035984458,-1.89E-05,-1.935524302,522.3160903,-0.547599367,3.558372546,3153.724858,3149.022287
2.848852007,4.66808396,523.0978516,2.848946542,0.036149782,-1.87E-05,-1.926731127,524.714232,-0.540921257,3.558372546,3146.671001,3141.96843
2.849340043,4.788364505,525.4965688,2.849444423,0.036315412,-1.84E-05,-1.761494877,527.1163456,-0.533444641,3.558372546,3139.617144,3134.914573
2.849848673,5.066575932,527.8957576,2.849973874,0.03648104,-1.81E-05,-1.435972111,529.5179021,-0.524958723,3.558372546,3132.563288,3127.860717
2.850394438,5.506596234,530.2907033,2.850551725,0.036646333,-1.78E-05,-0.945669501,531.9140127,-0.515172614,3.558372546,3125.509432,3120.806863
2.850994317,6.113015567,532.6762848,2.8511953,0.036810931,-1.74E-05,-0.285180269,534.2992995,-0.503676035,3.558372546,3118.455578,3113.753009
2.851665812,6.891433236,535.0468201,2.851922524,0.036974427,-1.69E-05,0.552212652,536.6676883,-0.489874372,3.558372546,3111.401724,3106.699156
2.852427079,7.848909282,537.395816,2.852752093,0.037136354,-1.64E-05,1.575154551,539.0120594,-0.472875955,3.558372546,3104.347872,3099.645305
2.853297106,8.994675717,539.7155383,2.85370371,0.037296142,-1.56E-05,2.795218798,541.3236262,-0.45128602,3.558372546,3097.294022,3092.591457
2.854296001,10.34130157,541.9962312,2.854798471,0.037453057,-1.47E-05,4.228594382,543.5907475,-0.422806929,3.558372546,3090.240175,3085.537611
2.855445428,11.90668475,544.2245928,2.856059468,0.037606062,-1.34E-05,5.899068964,545.7964637,-0.383402945,3.558372546,3083.18633,3078.483769
2.856769329,13.71761918,546.3805143,2.857512824,0.037753515,-1.14E-05,7.843559714,547.9128106,-0.325386487,3.558372546,3076.13249,3071.429934
2.858295154,15.81645798,548.4292633,2.859189508,0.03789241,-8.36E-06,10.12257317,549.885823,-0.232575762,3.558372546,3069.078657,3064.376109
2.860056058,18.27332227,550.2998987,2.861128521,0.038016126,-2.97E-06,12.83648364,551.5895675,-0.067464983,3.558372546,3062.024838,3057.322306
2.862094545,21.19911145,551.8166294,2.863380515,0.03810717,7.42E-06,16.10291285,552.6776024,0.250840012,3.558372546,3054.971048,3050.268553
2.864463985,24.65543009,552.497556,2.865994107,0.038122229,2.38E-05,19.67835856,552.3907466,0.726751763,3.558372546,3047.917316,3043.214844
2.867198559,28.10131523,551.5826405,2.868950596,0.038024594,3.30E-05,22.63495117,550.519363,0.960623126,3.558372546,3040.863597,3036.161075
2.870248177,30.68400801,549.3312729,2.872160456,0.037854381,3.28E-05,24.71466869,547.8714987,0.944838126,3.558372546,3033.809805,3029.107257
2.873520509,32.44804615,546.5347435,2.875543382,0.037656315,3.10E-05,26.16958729,544.9380484,0.893902545,3.558372546,3026.75598,3022.053425
2.876944997,33.65485932,543.5376023,2.879044292,0.037447593,2.96E-05,27.18499004,541.8890434,0.853668001,3.558372546,3019.702146,3014.999587
2.880472786,34.46062551,540.4585782,2.882623089,0.037234383,2.85E-05,27.86142856,538.789536,0.825117514,3.558372546,3012.648307,3007.945744
2.884067075,34.94885844,537.3457818,2.886247715,0.037019343,2.78E-05,28.25473365,535.6700083,0.804745743,3.558372546,3005.594461,3000.891895
2.887697657,35.16754473,534.2233085,2.889890809,0.036803891,2.73E-05,28.40012903,532.547908,0.790306735,3.558372546,2998.540612,2993.838044
2.891338346,35.14794758,531.1056362,2.893528071,0.036588916,2.69E-05,28.32129447,529.4346759,0.78007888,3.558372546,2991.48676,2986.784192
2.894965636,34.91124902,528.0026114,2.897137286,0.036375044,2.67E-05,28.0346879,526.3386806,0.772823445,3.558372546,2984.432907,2979.730338
2.89855787,34.47244719,524.9216778,2.900697729,0.036162761,2.65E-05,27.55241874,523.2666021,0.767731784,3.558372546,2977.379053,2972.676483
2.902094733,33.84279798,521.8689216,2.904189796,0.03595247,2.64E-05,26.88388228,520.2241013,0.764261579,3.558372546,2970.325197,2965.622627
2.905556948,33.03117474,518.8495881,2.907594775,0.035744526,2.63E-05,26.03667574,517.2161747,0.762029126,3.558372546,2963.271341,2958.56877
2.908926065,32.04484127,515.8683641,2.910894687,0.035539246,2.63E-05,25.01714173,514.2473604,0.760750547,3.558372546,2956.217484,2951.514913
2.912184328,30.88992279,512.9295459,2.914072172,0.035336924,2.62E-05,23.8307195,511.3218654,0.760211121,3.558372546,2949.163627,2944.461056
2.915314567,29.57171916,510.0371451,2.917110408,0.035137835,2.62E-05,22.48219003,508.4436474,0.760247491,3.558372546,2942.10977,2937.407199
2.91830013,28.09492652,507.1949553,2.919993053,0.034942238,2.63E-05,20.97585031,505.6164672,0.760734108,3.558372546,2935.055913,2930.353341
2.921124824,26.46379238,504.4065952,2.922911553,0.039547557,8.16E-05,19.08329229,503.6901391,2.081080013,4.046176194,2854.477006,2849.129788
2.924189161,25.59878594,502.8864239,2.925907804,0.039428465,8.19E-05,18.21248921,502.1744503,2.087324434,4.046176194,2846.456178,2841.108961
2.927146963,24.65307399,501.3928356,2.928791088,0.039311396,8.21E-05,17.25837127,500.683702,2.092689831,4.046176194,2838.435352,2833.088137
2.929988603,23.62427824,499.9246743,2.931551555,0.03919623,8.23E-05,16.21762415,499.215955,2.096783657,4.046176194,2830.414529,2825.067316
2.932704087,22.50843681,498.4795681,2.934178847,0.039082735,8.23E-05,15.08480974,497.7675882,2.098942372,4.046176194,2822.39371,2817.046499
2.935282816,21.29903337,497.0531943,2.936661758,0.038970491,8.23E-05,13.85091195,496.3321503,2.09795065,4.046176194,2814.372895,2809.025689
2.937713187,19.98514368,495.6378586,2.938987658,0.03885875,8.21E-05,12.50038698,494.8980114,2.091339191,4.046176194,2806.352087,2801.004888
2.939981874,18.54754232,494.2194931,2.941141359,0.03874611,8.14E-05,11.00443716,493.4430016,2.073316696,4.046176194,2798.33129,2792.984102
2.942072374,16.94938208,492.77047,2.943102626,0.038629704,7.98E-05,9.302868034,491.9200434,2.027007351,4.046176194,2790.310511,2784.963343
2.943961617,15.10917615,491.2289887,2.94483944,0.038502626,7.47E-05,7.241421764,490.2090368,1.881362578,4.046176194,2782.289767,2776.942647
2.945609937,12.79822933,489.4246731,2.94628478,0.03834513,4.81E-05,4.332344911,487.9724097,1.070826837,4.046176194,2774.269117,2768.922193
2.946929379,9.457371562,487.0683349,2.947341485,0.038173933,-5.94E-05,1.145081432,486.1178653,-1.642003088,4.046176194,2766.248781,2760.901788
2.94786538,6.664945743,485.8228885,2.948089728,0.038108677,-8.63E-05,-0.913212052,485.6265584,-2.210087547,4.046176194,2758.228227,2752.881076
2.948535216,4.791279506,485.5748093,2.948623346,0.038099578,-8.86E-05,-2.531034215,485.6246594,-2.260673941,4.046176194,2750.207496,2744.860324
2.949006785,3.256680265,485.6850354,2.948979662,0.038113132,-8.90E-05,-3.940555356,485.8544577,-2.268034374,4.046176194,2742.18673,2736.839533
2.94930912,1.902363155,485.9869339,2.949178766,0.038139733,-8.90E-05,-5.220610516,486.2281949,-2.26884949,4.046176194,2734.165932,2728.818726
2.949459376,0.666552915,486.4144708,2.949234104,0.038175282,-8.90E-05,-6.405879189,486.7056452,-2.268792707,4.046176194,2726.145122,2720.797911
2.949469697,-0.47840199,486.9361896,2.949156113,0.038217744,-8.90E-05,-7.512939099,487.2656492,-2.268899551,4.046176194,2718.124304,2712.77709
2.949349885,-1.546309308,487.5345923,2.948953728,0.03826594,-8.90E-05,-8.550486524,487.8953921,-2.269329525,4.046176194,2710.103482,2704.756266
2.949108536,-2.544550155,488.198691,2.948635076,0.038319108,-8.90E-05,-9.52318419,488.5863304,-2.270051017,4.046176194,2702.082657,2696.735439
2.948753593,-3.477127732,488.9209276,2.948207847,0.038376711,-8.91E-05,-10.43351711,489.3322525,-2.271010604,4.046176194,2694.061829,2688.71461
2.948292643,-4.346208353,489.695644,2.947679498,0.038438337,-8.91E-05,-11.28275892,490.1282881,-2.272167008,4.046176194,2686.041,2680.693779
2.947733088,-5.152911088,490.5183045,2.947057364,0.038503651,-8.92E-05,-12.07143507,490.9704144,-2.273484737,4.046176194,2678.020168,2672.672946
2.947082238,-5.897675144,491.3851091,2.94634874,0.038572369,-8.92E-05,-12.79953898,491.8551982,-2.274928361,4.046176194,2669.999335,2664.652113
2.946347382,-6.580442498,492.2927768,2.945560933,0.038644244,-8.93E-05,-13.46666429,492.7796257,-2.276464478,4.046176194,2661.978501,2656.631278
2.945535839,-7.200782326,493.238395,2.944701307,0.038719057,-8.93E-05,-14.07210783,493.7409766,-2.278064461,4.046176194,2653.957666,2648.610443
2.944654995,-7.757989842,494.2193052,2.943777311,0.038796603,-8.94E-05,-14.61495061,494.7367303,-2.279705082,4.046176194,2645.93683,2640.589606
2.943712332,-8.25116258,495.2330201,2.942796507,0.038876692,-8.95E-05,-15.09411834,495.7644975,-2.281367788,4.046176194,2637.915994,2632.568769
2.942715447,-8.679256642,496.2771632,2.941766577,0.03895914,-8.95E-05,-15.50842536,496.8219721,-2.283037643,4.046176194,2629.895156,2624.547931
2.941672066,-9.041127494,497.3494261,2.940695342,0.039043767,-8.96E-05,-15.85660665,497.9068954,-2.284702395,4.046176194,2621.874318,2616.527092
2.940590052,-9.335559806,498.4475368,2.939590766,0.039130398,-8.97E-05,-16.13734155,499.0170307,-2.286351745,4.046176194,2613.853479,2608.506253
2.939477418,-9.561289816,499.5692366,2.938460962,0.039218855,-8.97E-05,-16.34927193,500.150143,-2.287976819,4.046176194,2605.832639,2600.485413
2.938342324,-9.717022654,500.7122622,2.937314198,0.039308962,-8.98E-05,-16.4910166,501.3039844,-2.289569774,4.046176194,2597.811799,2592.464573
2.937193084,-9.801445375,501.8743348,2.936464962,0.028468349,-3.01E-06,-15.83062703,500.2765523,-0.105675483,2.929949062,2531.228247,2527.356167
2.936282467,-11.58591677,499.6786161,2.93545224,0.028343804,-2.88E-06,-17.64060204,498.087981,-0.101028467,2.929949062,2525.420126,2521.548046
2.935215551,-13.46938534,497.5196019,2.934277581,0.02822135,-2.73E-06,-19.55005413,495.9363268,-0.095418345,2.929949062,2519.612006,2515.739926
2.93398394,-15.45086704,495.3988465,2.932932644,0.028101075,-2.54E-06,-21.55800617,493.8231234,-0.088581749,2.929949062,2513.803886,2509.931806
2.932579326,-17.52934316,493.3178528,2.93140918,0.027983065,-2.30E-06,-23.6634336,491.7498459,-0.080148918,2.929949062,2507.995766,2504.123685
2.930993486,-19.7037418,491.2780618,2.929699027,0.027867398,-2.01E-06,-25.86523766,489.7178965,-0.069584008,2.929949062,2502.187645,2498.315565
2.929218295,-21.97290578,489.280836,2.927794129,0.027754153,-1.63E-06,-28.1621977,487.7285837,-0.056080712,2.929949062,2496.379525,2492.507445
2.927245732,-24.3355346,487.3274361,2.925686539,0.027643397,-1.14E-06,-30.55288206,485.783095,-0.038368703,2.929949062,2490.571406,2486.699326
2.925067895,-26.79007343,485.4189895,2.923368454,0.027535193,-4.74E-07,-33.03546862,483.8824638,-0.014326236,2.929949062,2484.763286,2480.891206
2.922677035,-29.33448241,483.5564579,2.920832254,0.027429593,4.67E-07,-35.60734616,482.0275556,0.019873706,2.929949062,2478.955166,2475.083087
2.920065613,-31.96570179,481.7406411,2.918070611,0.027326641,1.89E-06,-38.26409972,480.219195,0.071893604,2.929949062,2473.147047,2469.274968
2.917226444,-34.67820691,479.9724314,2.91507675,0.027226409,4.26E-06,-40.99636408,478.4591393,0.159550995,2.929949062,2467.338929,2463.46685
2.914153069,-37.4591005,478.2546169,2.911845316,0.027129219,8.91E-06,-43.77640878,476.7571082,0.335184387,2.929949062,2461.530811,2457.658734
2.910841169,-40.2636214,476.6064773,2.908376943,0.02703797,2.13E-05,-46.45524682,475.2137524,0.820500472,2.929949062,2455.722696,2451.850625
2.907298157,-42.76608729,475.2913871,2.904722177,0.026996325,5.03E-05,-47.7585956,475.2445546,1.748109221,2.929949062,2449.914595,2446.042536
2.903616989,-43.30226627,476.3012083,2.901036976,0.027091331,2.88E-05,-47.50839779,477.4028613,0.967838652,2.929949062,2444.106501,2440.234426
2.899942964,-42.88005016,478.6427484,2.897389527,0.027229234,1.82E-05,-47.00651253,479.8950531,0.622739981,2.929949062,2438.298387,2434.426308
2.896313328,-42.281695,481.163152,2.89379458,0.027373476,1.39E-05,-46.38518185,482.4485975,0.480606452,2.929949062,2432.490269,2428.61819
2.892739577,-41.57133598,483.7189728,2.890261594,0.027518898,1.16E-05,-45.66088513,485.0107519,0.404000535,2.929949062,2426.682151,2422.810071
2.889230719,-40.75941571,486.2742261,2.8867992,0.027663981,1.02E-05,-44.83725196,487.5622155,0.356118898,2.929949062,2420.874031,2417.001952
2.885795276,-39.84862148,488.8137766,2.883415819,0.02780802,9.25E-06,-43.91529799,490.0928873,0.323493816,2.929949062,2415.065912,2411.193832
2.88244163,-38.8398358,491.3290281,2.880119803,0.02795059,8.56E-06,-42.89534206,492.5962309,0.299739608,2.929949062,2409.257792,2405.385712
2.879178114,-37.73343866,493.8140873,2.876919469,0.028091384,8.03E-06,-41.77754262,495.0673049,0.281601651,2.929949062,2403.449672,2399.577592
2.876013037,-36.52970446,496.2643166,2.873823112,0.028230154,7.62E-06,-40.56207186,497.5019663,0.267250728,2.929949062,2397.641552,2393.769472
2.87295468,-35.22893796,498.6757288,2.870838999,0.02836668,7.28E-06,-39.24918002,499.8965087,0.255570204,2.929949062,2391.833432,2387.961352
2.870011296,-33.83152787,501.0447028,2.867975363,0.028500763,7.00E-06,-37.83922266,502.2474814,0.245837864,2.929949062,2386.025311,2382.153231
2.867191103,-32.33797095,503.3678361,2.865240392,0.028632212,6.76E-06,-36.33267409,504.5515894,0.237567944,2.929949062,2380.217191,2376.345111
2.864502267,-30.74888451,505.6418629,2.862642219,0.028760844,6.56E-06,-34.73013519,506.805638,0.230424221,2.929949062,2374.409071,2370.53699
2.8619529,-29.06501405,507.8636071,2.860188912,0.02888648,6.38E-06,-33.0323387,509.0064996,0.224168107,2.929949062,2368.60095,2364.72887
2.859551041,-27.28723841,510.029956,2.857888463,0.029008944,6.22E-06,-31.24015325,511.1510959,0.218625893,2.929949062,2362.79283,2358.920749
2.857304653,-25.41657363,512.1378453,2.855748776,0.029128062,6.08E-06,-29.35458651,513.2363888,0.213667243,2.929949062,2356.984709,2353.112629
2.855221602,-23.45417583,514.1842526,2.853777651,0.029243664,5.95E-06,-27.37678771,515.2593765,0.209191165,2.929949062,2351.176589,2347.304508
2.853309651,-21.40134334,516.1661949,2.85198278,0.02935558,5.83E-06,-25.30804951,517.217094,0.205117309,2.929949062,2345.368468,2341.496388
2.851576449,-19.25951715,518.0807301,2.850289707,0.029681404,3.60E-05,-25.70142166,519.0148872,1.260067036,2.951864154,2501.386463,2497.485425
2.849856148,-20.8009401,519.8520171,2.848481468,0.029783278,3.62E-05,-27.23274362,520.8031185,1.265076576,2.951864154,2495.534906,2491.633869
2.848006779,-22.26575518,521.6735432,2.846548536,0.029888006,3.63E-05,-28.68778855,522.64082,1.270371591,2.951864154,2489.683351,2485.782314
2.846034993,-23.65227477,523.5431698,2.844497659,0.029995463,3.65E-05,-30.06485975,524.5257724,1.276025716,2.951864154,2483.831795,2479.930759
2.843947582,-24.95885935,525.458598,2.842335724,0.030105515,3.67E-05,-31.36231067,526.4555752,1.282129228,2.951864154,2477.98024,2474.079204
2.841751477,-26.18392788,527.4173347,2.840069752,0.030218016,3.69E-05,-32.57855627,528.4276061,1.288793735,2.951864154,2472.128686,2468.22765
2.839453744,-27.3259713,529.416648,2.837706895,0.030332804,3.71E-05,-33.71208788,530.4389683,1.296158121,2.951864154,2466.277132,2462.376096
2.837061572,-28.38357021,531.4535102,2.835254423,0.0304497,3.73E-05,-34.76149257,532.4864206,1.304396576,2.951864154,2460.425578,2456.524543
2.834582268,-29.35541773,533.5245206,2.832719718,0.030568501,3.76E-05,-35.72547833,534.5662838,1.313729946,2.951864154,2454.574026,2450.672991
2.832023246,-30.24034959,535.6258023,2.83011026,0.030688977,3.79E-05,-36.60290731,536.6743103,1.324442289,2.951864154,2448.722474,2444.82144
2.829392012,-31.03738389,537.7528554,2.827433609,0.030810854,3.82E-05,-37.39283992,538.8054961,1.336905703,2.951864154,2442.870924,2438.969891
2.826696146,-31.74577463,539.9003439,2.824697387,0.030933808,3.86E-05,-38.09459478,540.9537998,1.351618783,2.951864154,2437.019375,2433.118343
2.823943281,-32.36508553,542.061772,2.821909249,0.031057438,3.91E-05,-38.70783174,543.1117048,1.369267609,2.951864154,2431.167827,2427.266797
2.821141069,-32.89529423,544.2289734,2.819076844,0.031181236,3.97E-05,-39.23266972,545.2695104,1.390822353,2.951864154,2425.316282,2421.415254
2.818297142,-33.33694333,546.3912737,2.816207767,0.031304524,4.05E-05,-39.66985627,547.4141518,1.417678568,2.951864154,2419.46474,2415.563713
2.815419052,-33.6913615,548.5340955,2.813309486,0.031426363,4.14E-05,-40.02100697,549.5272523,1.451812873,2.951864154,2413.613201,2409.712177
2.812514193,-33.96097812,550.6366597,2.810389247,0.031545394,4.27E-05,-40.28892272,551.5817858,1.495962575,2.951864154,2407.761666,2403.860646
2.80958969,-34.14975516,552.667794,2.807453933,0.031659515,4.43E-05,-40.47797729,553.5347864,1.554290873,2.951864154,2401.910137,2398.009121
2.80665224,-34.26377065,554.5761231,2.804509889,0.031765115,4.65E-05,-40.59428316,555.3098827,1.632818974,2.951864154,2396.058615,2392.157604
2.803707914,-34.31149855,556.2669189,2.801562768,0.031855275,4.94E-05,-40.64346608,556.7561326,1.734594755,2.951864154,2390.207102,2386.306104
2.800762055,-34.30030097,557.5470393,2.798617939,0.03191557,5.21E-05,-40.61454986,557.5550403,1.822827212,2.951864154,2384.355613,2380.454649
2.797820209,-34.21083071,558.0121514,2.795684017,0.031918025,4.85E-05,-40.41279456,557.1452218,1.657602577,2.951864154,2378.504184,2374.603304
2.794893684,-33.91480335,557.1044357,2.792781614,0.031840896,2.84E-05,-39.85931745,555.4014155,0.918869502,2.951864154,2372.652881,2368.75202
2.792007177,-33.28116895,555.082404,2.789937389,0.031717007,6.53E-06,-39.0263047,553.1337312,0.181076482,2.951864154,2366.801571,2362.900635
2.789184942,-32.44781718,552.7633246,2.787165506,0.031584167,-6.21E-06,-38.1072659,550.8191906,-0.242461493,2.951864154,2360.950154,2357.049173
2.786436734,-31.5729848,550.449576,2.784468268,0.031452958,-1.33E-05,-37.20429484,548.5488105,-0.480440557,2.951864154,2355.098676,2351.197675
2.783762487,-30.73199581,548.1845685,2.781842257,0.031324481,-1.77E-05,-36.36139183,546.3240178,-0.627646129,2.951864154,2349.247171,2345.346159
2.781157683,-29.9586735,545.9625944,2.77928142,0.031198231,-2.06E-05,-35.59931171,544.1339813,-0.727174612,2.951864154,2343.395651,2339.494632
2.778615723,-29.269835,543.7728382,2.776778371,0.031073615,-2.27E-05,-34.92902874,541.9689508,-0.799285104,2.951864154,2337.544121,2333.643098
2.776128924,-28.67474246,541.6065344,2.774324986,0.030950181,-2.43E-05,-34.35690382,539.8218884,-0.85442171,2.951864154,2331.692585,2327.791559
2.773688983,-28.17891691,539.4575446,2.771912694,0.030827619,-2.56E-05,-33.8868817,537.6881085,-0.898445108,2.951864154,2325.841045,2321.940016
2.771287219,-27.78583976,537.3218682,2.76953264,0.030705734,-2.67E-05,-33.52152461,535.5647106,-0.934880429,2.951864154,2319.989501,2316.088471
2.768914706,-27.49778609,535.197105,2.767175787,0.03058441,-2.76E-05,-33.26254455,533.4501048,-0.965961336,2.951864154,2314.137955,2310.236923
2.766562359,-27.31627232,533.0820208,2.765199701,0.024234765,1.76E-05,-32.6693962,533.7326296,0.773383446,2.343054254,2945.509437,2942.412974
2.764666272,-28.32160009,534.4662795,2.763257865,0.024298248,1.72E-05,-33.67806902,535.1431115,0.755736958,2.343054254,2940.864743,2937.768281
2.762702932,-29.28982599,535.9049403,2.761250445,0.024364273,1.67E-05,-34.6503617,536.6111403,0.733177626,2.343054254,2936.22005,2933.123589
2.760674891,-30.22020495,537.4026189,2.759180025,0.024433073,1.60E-05,-35.58561364,538.1424709,0.703524408,2.343054254,2931.575359,2928.478899
2.758584755,-31.11194254,538.9657499,2.757049247,0.024504979,1.52E-05,-36.48305086,539.7452155,0.663126557,2.343054254,2926.93067,2923.834211
2.75643519,-31.96399927,540.6034528,2.75486083,0.024580459,1.39E-05,-37.34139273,541.4309689,0.605467539,2.343054254,2922.285983,2919.189528
